id,pos_x,pos_y,pos_z,rot_x,rot_y,rot_z,rot_w
0,-102.934600830078,14.8605403900146,0,0,0,0.283713759069174,0.957892260256433
1,-99.658805847168,17.2530765533447,0,0,0,0.289403928377512,0.956052630132969
2,-96.2979888916016,19.5775966644287,0,0,0,0.278147206994432,0.959201904611271
3,-92.8888397216797,21.7121658325195,0,0,0,0.276855040812299,0.959687870339832
4,-89.5311508178711,23.9479923248291,0,0,0,0.288176082945646,0.956258640998245
5,-86.0962448120117,26.1420974731445,0,0,0,0.249696341215147,0.966891020227239
6,-82.8608703613281,28.4900360107422,0,0,0,0.271688516523087,0.960472700087004
7,-79.6266403198242,30.8560028076172,0,0,0,0.268905622601865,0.961199337091725
8,-76.4205017089844,33.2994232177734,0,0,0,0.285621545346967,0.956515971450747
9,-72.9898986816406,35.5652656555176,0,0,0,0.260665933600729,0.963628258122033
10,-69.6312026977539,37.8302612304687,0,0,0,0.276855021555274,0.959072202246232
11,-66.2218399047852,39.9536514282227,0,0,0,0.268668456752544,0.961434576905848
12,-62.8292503356934,42.2090950012207,0,0,0,0.29887367319577,0.952531473435782
13,-59.4867897033691,44.4846839904785,0,0,0,0.272756606062694,0.960836381941859
14,-56.0915260314941,46.6750679016113,0,0,0,0.237541000577361,0.969890346314241
15,-52.7358512878418,48.9269752502441,0,0,0,0.292669175863528,0.954570198344744
16,-49.3246078491211,51.0935134887695,0,0,0,0.243555142689703,0.968204698600589
17,-45.7102508544922,52.9621963500977,0,0,0,0.20781372961949,0.976577300913228
18,-42.0959587097168,54.7876930236816,0,0,0,0.205223866503374,0.977177441578461
19,-38.3829116821289,56.4943351745606,0,0,0,0.204492754760006,0.977305968520213
20,-34.6347961425781,58.1196708679199,0,0,0,0.181138829451685,0.982047121379485
21,-30.8933181762695,59.5707550048828,0,0,0,0.154268666957022,0.986845050983048
22,-27.1036586761475,60.8751258850098,0,0,0,0.18721796448264,0.980923216765297
23,-23.2908954620361,62.3659744262695,0,0,0,0.146447576853956,0.987630049073272
24,-19.4344348907471,63.5564117431641,0,0,0,0.139612454494318,0.98877002857337
25,-15.627347946167,64.8973770141602,0,0,0,0.146811383572743,0.987605116174844
26,-11.70751953125,65.9145202636719,0,0,0,0.0708642799195126,0.995937686737014
27,-7.7092022895813,66.6532516479492,0,0,0,0.0551218346754375,0.996904447174427
28,-3.73805713653564,67.4072189331055,0,0,0,0.100333255285986,0.993399765567568
29,0.236001923680305,68.0150604248047,0,0,0,0.0650038931562471,0.995781636425825
30,4.2484302520752,68.7567825317383,0,0,0,0.048650705714502,0.997197583003219
31,8.29013729095459,69.0119476318359,0,0,0,-0.00864342745522045,0.998597017717693
32,12.3439359664917,68.6685028076172,0,0,0,-0.0876039997682024,0.994388437018488
33,16.3053951263428,67.8103408813477,0,0,0,-0.1756553726183,0.983059852294344
34,19.9469108581543,66.0900802612305,0,0,0,-0.271377938395849,0.960888621009784
35,23.2474498748779,63.68359375,0,0,0,-0.346839209834934,0.935334709176551
36,26.2557258605957,60.9349594116211,0,0,0,-0.410752412681456,0.910229119261195
37,28.6676406860352,57.6409225463867,0,0,0,-0.516678023446715,0.854559022741944
38,30.1277942657471,53.9050521850586,0,0,0,-0.624548948009628,0.780149956148149
39,30.8404273986816,49.8862228393555,0,0,0,-0.655807392853144,0.754316292566659
40,31.6590137481689,45.9000282287598,0,0,0,-0.637274076620728,0.769849408889421
41,32.5511856079102,41.9457626342773,0,0,0,-0.636490103644381,0.770678688605442
42,33.255184173584,37.9544715881348,0,0,0,-0.651956997429781,0.757473719958542
43,34.2218322753906,34.0466270446777,0,0,0,-0.606577882336365,0.79457711375299
44,35.5363235473633,30.2286186218262,0,0,0,-0.593920480576772,0.804422172765212
45,36.6637001037598,26.2990627288818,0,0,0,-0.620183156321033,0.784281979322598
46,37.5060615539551,22.3660011291504,0,0,0,-0.65560991654804,0.754929979042597
47,38.1409187316895,18.4075012207031,0,0,0,-0.656507658165891,0.754285756389234
48,38.7885246276855,14.4367446899414,0,0,0,-0.670788001318306,0.741644658284968
49,39.5053482055664,10.4213905334473,0,0,0,-0.675322490065574,0.73723982216173
50,40.1759452819824,6.00924348831177,0,0,0,-0.668306195209769,0.743700495542968
51,36.3183059692383,4.78356838226318,0,0,0,0.998487334283776,-0.0518713501211425
52,32.2993850708008,4.17872285842896,0,0,0,0.990460770588844,-0.12958304238251
53,28.3557567596436,3.5172815322876,0,0,0,0.99639189502987,-0.065193054438664
54,24.4140300750732,3.0688796043396,0,0,0,0.997772529953194,-0.0319787865049448
55,20.4461975097656,2.6450617313385,0,0,0,0.998781199093287,-0.0389289963076849
56,16.4392261505127,2.05458354949951,0,0,0,0.998797737050195,-0.040722513112372
57,12.3987150192261,1.56747984886169,0,0,0,0.997720385038103,-0.065300794248229
58,8.41260719299316,1.00058436393738,0,0,0,0.998974482883442,-0.0419954479612175
59,4.36034250259399,0.441505789756775,0,0,0,0.999669653747234,-0.0235369873461064
60,0.334542363882065,0.184128895401955,0,0,0,0.999493910458932,-0.0267659172917885
61,-3.74981713294983,-0.0915616676211357,0,0,0,0.999800185267749,-0.0182597326257446
62,-7.81954479217529,-0.424891769886017,0,0,0,0.999948179869285,-0.00406449954455191
63,-11.8481016159058,-0.664925992488861,0,0,0,0.997851298480205,-0.0653095533895374
64,-15.8115396499634,-1.39485359191895,0,0,0,0.995559182431122,-0.0938587204967108
65,-19.8169593811035,-1.91862845420837,0,0,0,0.998623757756839,-0.0509379734408502
66,-23.7934970855713,-2.35308718681335,0,0,0,0.999093792508501,-0.0405845773670782
67,-27.8650932312012,-2.77321410179138,0,0,0,0.99868565103823,-0.0496044544040895
68,-31.8860740661621,-3.22679781913757,0,0,0,0.998991465126844,-0.0436906561972432
69,-35.9505462646484,-3.63861107826233,0,0,0,0.997040653815114,-0.0758365020899853
70,-40.0097961425781,-4.11227703094482,0,0,0,0.999813047457197,0.0038137500569912
71,-44.1151466369629,-4.26995658874512,0,0,0,0.999645162748979,-0.0140555125669088
72,-48.1364898681641,-4.36568355560303,0,0,0,0.999762499441377,-0.0158680962316537
73,-52.2536392211914,-4.32666301727295,0,0,0,0.999101272191011,0.0344866641679531
74,-56.3239212036133,-4.16957855224609,0,0,0,0.999206511278637,0.0274859005986004
75,-60.3907279968262,-3.74798321723938,0,0,0,0.996994979657798,0.0729028559505578
76,-64.3926849365234,-3.43467378616333,0,0,0,0.997742548640181,0.0611488221673301
77,-68.451904296875,-2.89366817474365,0,0,0,0.995093318214942,0.0950833330290113
78,-72.4659271240234,-2.2415030002594,0,0,0,0.996149607569495,0.083368286294495
79,-76.4262161254883,-1.57594013214111,0,0,0,0.994475609900294,0.101108281818796
80,-80.4299468994141,-1.28143334388733,0,0,0,0.998387899942809,0.0475019019160713
81,-84.4554214477539,-0.734498500823975,0,0,0,0.993134332172487,0.112124934735871
82,-88.3781585693359,0.200546458363533,0,0,0,0.994023126879528,0.103171763038483
83,-92.3613891601562,0.906050622463226,0,0,0,0.993582653254239,0.106653713868116
84,-96.2994918823242,1.88471329212189,0,0,0,0.986097629922104,0.162184251972421
85,-100.141632080078,3.06629824638367,0,0,0,0.983157699499501,0.178284415725766
86,-103.946792602539,4.3463978767395,0,0,0,0.979714411194046,0.195089818899026
87,-106.208625793457,5.38465118408203,0,0,0,0.965097826349986,0.257565252215749
88,-106.748161315918,9.36587238311768,0,0,0,0.59226298558014,0.804106493330879
89,-104.851142883301,12.9556999206543,0,0,0,0.417934384588482,0.90724618190415
90,-102.902359008789,14.9228572845459,0,0,0,0.289732864315898,0.956074107579751
